 $SEQPAR
 ECHOT = 23.00000000
 SEQ = 'PRESS'
 HZPPM = 123.22985000
 $END
 $NMID
 ID = 'ACN1052A'
 FMTDAT = '(2E15.6)'
 VOLUME = 4.080E+00
 TRAMP = 1.0
 $END
   2.693123E+03  -3.682847E+02
   2.354179E+03   6.023586E+02
   1.457223E+03   8.673969E+02
   7.795032E+02   4.671518E+02
   8.767878E+02  -7.165942E+00
   1.080675E+03  -1.971756E+02
   1.179852E+03  -8.361586E+01
   1.038906E+03  -5.463065E+01
   9.018471E+02  -1.139029E+02
   8.832786E+02  -2.070741E+02
   7.967457E+02  -3.639400E+02
   8.581340E+02  -5.154550E+02
   1.077601E+03  -6.323537E+02
   1.250491E+03  -4.595082E+02
   1.217100E+03  -2.801033E+02
   9.616702E+02  -2.734701E+02
   8.757756E+02  -3.962563E+02
   9.516500E+02  -5.572246E+02
   1.081910E+03  -5.691570E+02
   1.165920E+03  -4.782496E+02
   1.242555E+03  -4.069666E+02
   1.149214E+03  -3.253603E+02
   1.076159E+03  -3.120255E+02
   9.796115E+02  -3.407243E+02
   9.419097E+02  -3.819774E+02
   1.008285E+03  -4.489565E+02
   9.429878E+02  -3.765803E+02
   8.233904E+02  -3.581865E+02
   6.573887E+02  -4.210437E+02
   7.505914E+02  -6.210964E+02
   9.154904E+02  -7.141301E+02
   1.014580E+03  -5.804959E+02
   8.847523E+02  -4.554008E+02
   7.977145E+02  -4.061898E+02
   7.020498E+02  -5.009932E+02
   7.565229E+02  -5.082036E+02
   7.178766E+02  -5.330008E+02
   7.037903E+02  -5.988049E+02
   7.130252E+02  -6.071925E+02
   7.362618E+02  -5.684800E+02
   6.180435E+02  -5.775312E+02
   5.783673E+02  -6.222487E+02
   6.645434E+02  -7.536340E+02
   8.145396E+02  -7.216215E+02
   8.832078E+02  -6.042634E+02
   7.218206E+02  -4.707722E+02
   6.197749E+02  -5.541309E+02
   5.978903E+02  -6.299713E+02
   6.724885E+02  -7.258448E+02
   7.365269E+02  -6.457828E+02
   7.652693E+02  -5.036965E+02
   6.197692E+02  -3.989882E+02
   5.030027E+02  -4.526208E+02
   4.122393E+02  -5.658915E+02
   3.471853E+02  -6.723814E+02
   4.363961E+02  -6.826122E+02
   5.592712E+02  -7.719364E+02
   5.788931E+02  -6.561694E+02
   5.252544E+02  -5.918602E+02
   4.705511E+02  -5.909706E+02
   4.824159E+02  -6.589852E+02
   5.259199E+02  -6.841883E+02
   5.145848E+02  -5.820300E+02
   4.926426E+02  -5.351949E+02
   3.435087E+02  -5.417823E+02
   3.251320E+02  -5.802147E+02
   3.230591E+02  -7.134781E+02
   3.409031E+02  -7.223916E+02
   4.974214E+02  -7.701882E+02
   4.925541E+02  -6.665090E+02
   4.391946E+02  -6.144786E+02
   4.183368E+02  -5.148537E+02
   3.427495E+02  -5.155791E+02
   3.324901E+02  -6.005978E+02
   3.508719E+02  -5.605359E+02
   2.827438E+02  -5.803663E+02
   2.638010E+02  -5.561681E+02
   2.291784E+02  -6.441359E+02
   2.343149E+02  -7.012037E+02
   3.315569E+02  -7.006660E+02
   3.586526E+02  -6.066615E+02
   3.599736E+02  -5.216731E+02
   2.735210E+02  -4.769848E+02
   2.201796E+02  -4.842347E+02
   1.518034E+02  -5.988458E+02
   1.261629E+02  -6.498939E+02
   1.681862E+02  -6.367827E+02
   2.305620E+02  -7.273582E+02
   2.337965E+02  -6.714042E+02
   2.047479E+02  -6.524903E+02
   2.754681E+02  -6.250369E+02
   2.495533E+02  -6.208544E+02
   3.396742E+02  -5.783488E+02
   2.839536E+02  -4.335036E+02
   1.803848E+02  -4.101444E+02
   8.163765E+01  -4.078289E+02
   4.009169E+01  -4.829578E+02
  -4.310665E+00  -5.573897E+02
   6.580893E+01  -6.177966E+02
   1.406387E+02  -6.053470E+02
   8.059270E+01  -5.889817E+02
   9.598413E+01  -4.971684E+02
   8.096650E+01  -5.360406E+02
   1.110406E+02  -5.706121E+02
   9.662951E+01  -5.605222E+02
   1.001335E+02  -5.034016E+02
   6.291921E+01  -4.408707E+02
   3.033172E+01  -4.526254E+02
  -4.562669E+01  -5.034441E+02
  -3.545832E+01  -6.076498E+02
   6.489324E+01  -6.544844E+02
   1.377623E+02  -5.736736E+02
   1.229907E+02  -4.725100E+02
   1.173603E+02  -3.888071E+02
   4.447149E+01  -4.403637E+02
  -3.126478E+00  -4.491747E+02
  -1.838161E+01  -4.711990E+02
   2.708903E+01  -4.558303E+02
   2.165516E+01  -4.858727E+02
  -1.465870E+01  -3.860396E+02
  -2.845777E+01  -4.399172E+02
  -2.428987E+01  -4.373720E+02
   3.020425E+01  -4.602864E+02
   4.502438E+01  -4.598321E+02
   2.060652E+01  -3.436405E+02
  -5.312606E+01  -3.230211E+02
  -1.196449E+02  -3.858895E+02
  -1.723522E+02  -3.866978E+02
  -7.752096E+01  -4.659704E+02
  -4.008901E+01  -4.971852E+02
  -9.375976E+00  -4.240693E+02
  -5.363358E+01  -3.774678E+02
  -4.449660E+01  -4.062102E+02
  -1.158070E+02  -4.452705E+02
  -4.656345E+01  -4.379099E+02
  -3.185691E+01  -4.774709E+02
   2.174293E+00  -4.058911E+02
  -2.579353E+01  -3.191975E+02
  -8.560822E+01  -2.646145E+02
  -8.682986E+01  -3.044372E+02
  -1.193395E+02  -3.704700E+02
  -8.661684E+01  -3.542899E+02
  -8.215063E+01  -3.070394E+02
  -1.510426E+02  -3.101725E+02
  -1.584790E+02  -2.880233E+02
  -2.009866E+02  -3.550903E+02
  -2.084448E+02  -3.325820E+02
  -1.650158E+02  -4.162391E+02
  -6.944218E+01  -3.808460E+02
  -5.042901E+01  -3.790243E+02
  -7.304355E+01  -3.331781E+02
  -1.224050E+02  -2.547738E+02
  -1.173301E+02  -2.978436E+02
  -1.316477E+02  -2.498369E+02
  -1.135215E+02  -2.783728E+02
  -1.774635E+02  -2.263413E+02
  -2.046300E+02  -2.581709E+02
  -1.651612E+02  -2.654001E+02
  -1.589694E+02  -3.129757E+02
  -1.693853E+02  -3.503067E+02
  -1.090101E+02  -3.247296E+02
  -5.941637E+01  -2.327053E+02
  -1.059757E+02  -2.135100E+02
  -1.037611E+02  -1.833821E+02
  -1.732205E+02  -2.309730E+02
  -1.904759E+02  -2.606921E+02
  -1.491818E+02  -2.219432E+02
  -1.737918E+02  -2.064305E+02
  -1.480925E+02  -2.134287E+02
  -1.493548E+02  -2.424577E+02
  -1.793660E+02  -2.423775E+02
  -1.503729E+02  -2.085525E+02
  -9.074801E+01  -1.719634E+02
  -9.004607E+01  -1.215089E+02
  -1.792582E+02  -1.227618E+02
  -2.316212E+02  -1.465721E+02
  -2.483732E+02  -1.759421E+02
  -2.689087E+02  -2.746340E+02
  -1.823960E+02  -3.110591E+02
  -1.100077E+02  -2.540160E+02
  -7.790489E+01  -1.719555E+02
  -1.223926E+02  -8.969381E+01
  -9.800462E+01  -1.218719E+02
  -1.845266E+02  -9.989568E+01
  -1.538660E+02  -6.935421E+01
  -1.420252E+02  -1.199766E+02
  -1.104080E+02  -7.769219E+01
  -2.036379E+02  -9.093124E+01
  -2.366973E+02  -1.014590E+02
  -2.667530E+02  -1.403784E+02
  -1.990173E+02  -2.282704E+02
  -1.477125E+02  -2.030826E+02
  -6.749204E+01  -1.227458E+02
  -9.721701E+01  -1.145040E+02
  -1.954407E+02  -8.327594E+01
  -1.984131E+02  -1.103503E+02
  -2.251503E+02  -1.171116E+02
  -1.452390E+02  -1.363082E+02
  -1.903883E+02  -1.195511E+02
  -1.815683E+02  -7.517566E+01
  -1.907532E+02  -8.024452E+01
  -2.024666E+02  -1.076448E+02
  -2.040453E+02  -1.405389E+02
  -1.484460E+02  -1.427266E+02
  -1.364717E+02  -1.203836E+02
  -1.249549E+02  -3.341914E+01
  -1.709121E+02  -7.202122E+01
  -2.120998E+02  -4.597152E+01
  -1.930427E+02  -6.161957E+01
  -1.808186E+02  -1.345015E+02
  -1.756299E+02  -9.262682E+01
  -1.225495E+02  -7.319667E+01
  -1.736108E+02  -4.241355E+01
  -1.305016E+02  -4.211033E+01
  -1.703502E+02  -4.015675E+01
  -1.210754E+02  -4.209860E+01
  -1.197546E+02  -4.228410E+01
  -1.512546E+02  -5.358272E+00
  -1.672368E+02  -4.012715E+01
  -2.034544E+02  -6.350555E+01
  -1.983217E+02  -4.401070E+01
  -2.171497E+02  -4.570926E+01
  -1.531042E+02  -8.843810E+01
  -1.561688E+02  -7.973841E+01
  -1.422258E+02  -1.868324E+00
  -1.722778E+02  -2.161364E+01
  -1.945916E+02  -4.803951E+01
  -8.823366E+01  -6.620548E+01
  -9.262072E+01  -3.520100E+01
  -1.093676E+02   5.965858E+01
  -7.312342E+01   5.613776E+01
  -1.742043E+02   5.990106E+01
  -2.135149E+02   6.523637E+01
  -2.013021E+02  -2.417651E+01
  -1.284744E+02  -2.703420E+01
  -1.010145E+02  -2.784257E+01
  -1.431480E+02  -2.882141E+01
  -1.628574E+02   1.876103E+01
  -1.603666E+02  -4.855943E+01
  -1.369286E+02  -1.287523E+01
  -1.181493E+02  -5.379919E+01
  -8.541044E+01  -2.303915E+01
  -6.044796E+01   2.388554E+01
  -8.105881E+01   5.227170E+01
  -1.063872E+02   7.195166E+01
  -1.410303E+02   3.040370E+01
  -1.406586E+02   1.434774E+01
  -1.341797E+02  -3.640324E+01
  -1.045484E+02   6.103876E+01
  -1.431622E+02   9.819545E+00
  -1.144623E+02  -2.884977E+01
  -8.124075E+01   1.015371E+01
  -6.960448E+01   1.915634E+01
  -8.101055E+01   5.779819E+01
  -6.080628E+01   1.072976E+02
  -1.011248E+02   4.367116E+01
  -1.265862E+02   6.629156E+01
  -1.153717E+02   5.617266E+01
  -1.054600E+02   3.710137E+01
  -1.379013E+02   3.187033E+01
  -8.607836E+01   1.813297E+01
  -1.060092E+02   5.106081E+01
  -8.418624E+01   6.699578E+01
  -7.648325E+01   5.280163E+01
  -5.815064E+01   2.526805E+01
  -8.478768E+01   6.317456E+01
  -1.158012E+02   7.664478E+01
  -1.030596E+02   8.045941E+01
  -1.480230E+02   1.200478E+01
  -1.254630E+02  -4.347217E+01
  -9.015680E+01  -1.919560E+01
  -3.682607E+01  -6.681905E+01
  -7.081921E+01  -6.604049E+00
  -9.749040E-01   4.193800E+01
  -4.685217E+01   1.056794E+02
  -5.488318E+01   1.239367E+02
  -9.459116E+01   4.146920E+01
  -5.966862E+01   6.856492E+01
  -6.119853E+01   7.828191E+01
  -8.392376E+01  -2.547564E+01
  -8.730055E+01   8.374412E+01
  -1.169752E+02   4.864103E+01
  -6.403209E+01  -1.416113E+01
  -5.934172E+01   1.101477E+01
  -2.774479E+01   1.651271E+01
  -4.006510E+01   9.265590E+01
  -5.184860E+01   7.886098E+01
  -9.122179E+01   6.072021E+01
  -8.992989E+01   4.694057E+01
  -2.911616E+01   2.728148E+01
  -2.141382E+01   3.022873E+01
  -3.771103E+01   6.231878E+01
  -6.699825E+00   7.408160E+01
  -3.946926E+01   1.049243E+02
  -5.706782E+01   4.855066E+01
  -3.695557E+01   7.158535E+01
   2.496351E+01   1.276080E+02
   1.094412E+01   9.806989E+01
  -3.507733E+01   6.905338E+01
  -5.740692E+01   8.675406E+01
  -1.023841E+02   6.493176E+01
  -5.435554E+01   2.921975E+01
  -3.615467E+01   1.817905E+01
  -6.046434E+00   2.336032E+01
  -1.700473E+01   4.049581E+01
  -6.579588E+01   5.219524E+01
   1.274931E+00   4.475076E+01
  -7.454163E+01   6.502571E+01
   2.620202E+01   3.227224E+01
  -1.132704E+01   3.450024E+01
  -6.586779E+00   3.097292E+01
  -3.026256E+01   9.595826E+01
  -2.930664E+01   7.778096E+01
  -3.674728E+01   3.965916E+01
  -8.878165E+00   9.530759E+01
  -2.393299E+00   5.399168E+01
   1.598980E+01   8.927645E+01
