 LCModel (Version 6.3-1P) Copyright: S.W. Provencher.          Ref.: Magn. Reson. Med. 30:672-679 (1993).                
  acn0052a_acc_m_5m10 (acn0052a_acc_m_5m10) test1_test1
 Data of: Laboratorio de Interfaces Cerebro-Maquina, Pontificia Universidad Catolica de Chile, Universidad de Chile
 13-October-2020  23:00
 36 lines in following concentration table = NCONC+1
    Conc.  %SD /Cr+PCr  Metabolite                                         
   94.082 107% 7.6E-02 Ala                                                 
  426.014  34%   0.346 Asp                                                 
  769.269  14%   0.625 Cr                                                  
  462.215  24%   0.375 PCr                                                 
    0.000 999%   0.000 GABA                                                
  169.543  49%   0.138 Glc                                                 
  491.239  29%   0.399 Gln                                                 
 2.15E+03   7%   1.749 Glu                                                 
  389.671   5%   0.316 GPC                                                 
    0.000 999%   0.000 PCh                                                 
  287.402  18%   0.233 GSH                                                 
 1.28E+03   6%   1.039 Ins                                                 
   75.596 146% 6.1E-02 Lac                                                 
 1.46E+03   5%   1.183 NAA                                                 
  103.362  64% 8.4E-02 NAAG                                                
    7.934 267% 6.4E-03 Scyllo                                              
    0.000 999%   0.000 Tau                                                 
    0.000 999%   0.000 -CrCH2                                              
  389.671   5%   0.316 GPC+PCh                                             
 1.56E+03   5%   1.267 NAA+NAAG                                            
 1.23E+03   4%   1.000 Cr+PCr                                              
 2.64E+03   7%   2.148 Glu+Gln                                             
    0.000 999%   0.000 Lip13a                                              
  345.219  86%   0.280 Lip13b                                              
   90.544 151% 7.4E-02 Lip09                                               
 1.91E+03  12%   1.552 MM09                                                
   30.530 294% 2.5E-02 Lip20                                               
 2.57E+03  17%   2.087 MM20                                                
  476.696  42%   0.387 MM12                                                
 1.70E+03  23%   1.384 MM14                                                
 1.47E+03  19%   1.190 MM17                                                
  345.219  86%   0.280 Lip13a+Lip13b                                       
 2.53E+03  15%   2.052 MM14+Lip13a+Lip13b+MM12                             
 2.00E+03  10%   1.626 MM09+Lip09                                          
 2.60E+03  17%   2.112 MM20+Lip20                                          
   6 lines in following misc. output table
  FWHM = 0.032 ppm    S/N =   8                                            
  Data shift =-0.012 ppm                                                   
  Ph:   4 deg      -3.5 deg/ppm                                            
  alphaB,S = 8.5E+01,   2.0E+02                                            
   14 spline knots.   Ns = 8(1)                                            
   2 inflections.     1 extrema                                            
  960 points on ppm-axis = NY
      4.000000     3.996038     3.992075     3.988113     3.984151     3.980189     3.976226     3.972264     3.968302     3.964339
      3.960377     3.956415     3.952453     3.948490     3.944528     3.940566     3.936604     3.932641     3.928679     3.924717
      3.920754     3.916792     3.912830     3.908868     3.904905     3.900943     3.896981     3.893018     3.889056     3.885094
      3.881132     3.877169     3.873207     3.869245     3.865283     3.861320     3.857358     3.853396     3.849433     3.845471
      3.841509     3.837547     3.833584     3.829622     3.825660     3.821697     3.817735     3.813773     3.809811     3.805848
      3.801886     3.797924     3.793962     3.789999     3.786037     3.782075     3.778112     3.774150     3.770188     3.766226
      3.762263     3.758301     3.754339     3.750376     3.746414     3.742452     3.738490     3.734527     3.730565     3.726603
      3.722641     3.718678     3.714716     3.710754     3.706791     3.702829     3.698867     3.694905     3.690942     3.686980
      3.683018     3.679055     3.675093     3.671131     3.667169     3.663206     3.659244     3.655282     3.651320     3.647357
      3.643395     3.639433     3.635470     3.631508     3.627546     3.623584     3.619621     3.615659     3.611697     3.607734
      3.603772     3.599810     3.595848     3.591885     3.587923     3.583961     3.579998     3.576036     3.572074     3.568112
      3.564149     3.560187     3.556225     3.552263     3.548300     3.544338     3.540376     3.536413     3.532451     3.528489
      3.524527     3.520564     3.516602     3.512640     3.508677     3.504715     3.500753     3.496791     3.492828     3.488866
      3.484904     3.480942     3.476979     3.473017     3.469055     3.465092     3.461130     3.457168     3.453206     3.449243
      3.445281     3.441319     3.437356     3.433394     3.429432     3.425470     3.421507     3.417545     3.413583     3.409621
      3.405658     3.401696     3.397734     3.393771     3.389809     3.385847     3.381885     3.377922     3.373960     3.369998
      3.366035     3.362073     3.358111     3.354149     3.350186     3.346224     3.342262     3.338300     3.334337     3.330375
      3.326413     3.322450     3.318488     3.314526     3.310564     3.306601     3.302639     3.298677     3.294714     3.290752
      3.286790     3.282828     3.278865     3.274903     3.270941     3.266979     3.263016     3.259054     3.255092     3.251129
      3.247167     3.243205     3.239243     3.235280     3.231318     3.227356     3.223393     3.219431     3.215469     3.211507
      3.207544     3.203582     3.199620     3.195657     3.191695     3.187733     3.183771     3.179808     3.175846     3.171884
      3.167922     3.163959     3.159997     3.156035     3.152072     3.148110     3.144148     3.140186     3.136223     3.132261
      3.128299     3.124336     3.120374     3.116412     3.112450     3.108487     3.104525     3.100563     3.096601     3.092638
      3.088676     3.084714     3.080751     3.076789     3.072827     3.068865     3.064902     3.060940     3.056978     3.053015
      3.049053     3.045091     3.041129     3.037166     3.033204     3.029242     3.025280     3.021317     3.017355     3.013393
      3.009430     3.005468     3.001506     2.997544     2.993581     2.989619     2.985657     2.981694     2.977732     2.973770
      2.969808     2.965845     2.961883     2.957921     2.953959     2.949996     2.946034     2.942072     2.938109     2.934147
      2.930185     2.926223     2.922260     2.918298     2.914336     2.910373     2.906411     2.902449     2.898487     2.894524
      2.890562     2.886600     2.882638     2.878675     2.874713     2.870751     2.866788     2.862826     2.858864     2.854902
      2.850939     2.846977     2.843015     2.839052     2.835090     2.831128     2.827166     2.823203     2.819241     2.815279
      2.811316     2.807354     2.803392     2.799430     2.795467     2.791505     2.787543     2.783581     2.779618     2.775656
      2.771694     2.767731     2.763769     2.759807     2.755845     2.751882     2.747920     2.743958     2.739995     2.736033
      2.732071     2.728109     2.724146     2.720184     2.716222     2.712260     2.708297     2.704335     2.700373     2.696410
      2.692448     2.688486     2.684524     2.680561     2.676599     2.672637     2.668674     2.664712     2.660750     2.656788
      2.652825     2.648863     2.644901     2.640939     2.636976     2.633014     2.629052     2.625089     2.621127     2.617165
      2.613203     2.609240     2.605278     2.601316     2.597353     2.593391     2.589429     2.585467     2.581504     2.577542
      2.573580     2.569618     2.565655     2.561693     2.557731     2.553768     2.549806     2.545844     2.541882     2.537919
      2.533957     2.529995     2.526032     2.522070     2.518108     2.514146     2.510183     2.506221     2.502259     2.498296
      2.494334     2.490372     2.486410     2.482447     2.478485     2.474523     2.470561     2.466598     2.462636     2.458674
      2.454711     2.450749     2.446787     2.442825     2.438862     2.434900     2.430938     2.426975     2.423013     2.419051
      2.415089     2.411126     2.407164     2.403202     2.399240     2.395277     2.391315     2.387353     2.383390     2.379428
      2.375466     2.371504     2.367541     2.363579     2.359617     2.355654     2.351692     2.347730     2.343768     2.339805
      2.335843     2.331881     2.327919     2.323956     2.319994     2.316032     2.312069     2.308107     2.304145     2.300183
      2.296220     2.292258     2.288296     2.284333     2.280371     2.276409     2.272447     2.268484     2.264522     2.260560
      2.256598     2.252635     2.248673     2.244711     2.240748     2.236786     2.232824     2.228862     2.224899     2.220937
      2.216975     2.213012     2.209050     2.205088     2.201126     2.197163     2.193201     2.189239     2.185277     2.181314
      2.177352     2.173390     2.169427     2.165465     2.161503     2.157541     2.153578     2.149616     2.145654     2.141691
      2.137729     2.133767     2.129805     2.125842     2.121880     2.117918     2.113955     2.109993     2.106031     2.102069
      2.098106     2.094144     2.090182     2.086220     2.082257     2.078295     2.074333     2.070370     2.066408     2.062446
      2.058484     2.054521     2.050559     2.046597     2.042634     2.038672     2.034710     2.030748     2.026785     2.022823
      2.018861     2.014899     2.010936     2.006974     2.003012     1.999049     1.995087     1.991125     1.987162     1.983200
      1.979237     1.975275     1.971313     1.967350     1.963388     1.959425     1.955463     1.951501     1.947538     1.943576
      1.939613     1.935651     1.931689     1.927726     1.923764     1.919801     1.915839     1.911877     1.907914     1.903952
      1.899989     1.896027     1.892065     1.888102     1.884140     1.880177     1.876215     1.872253     1.868290     1.864328
      1.860365     1.856403     1.852441     1.848478     1.844516     1.840553     1.836591     1.832629     1.828666     1.824704
      1.820741     1.816779     1.812817     1.808854     1.804892     1.800929     1.796967     1.793005     1.789042     1.785080
      1.781117     1.777155     1.773193     1.769230     1.765268     1.761305     1.757343     1.753381     1.749418     1.745456
      1.741493     1.737531     1.733569     1.729606     1.725644     1.721681     1.717719     1.713757     1.709794     1.705832
      1.701869     1.697907     1.693945     1.689982     1.686020     1.682057     1.678095     1.674133     1.670170     1.666208
      1.662246     1.658283     1.654321     1.650358     1.646396     1.642434     1.638471     1.634509     1.630546     1.626584
      1.622622     1.618659     1.614697     1.610734     1.606772     1.602810     1.598847     1.594885     1.590922     1.586960
      1.582998     1.579035     1.575073     1.571110     1.567148     1.563186     1.559223     1.555261     1.551298     1.547336
      1.543374     1.539411     1.535449     1.531486     1.527524     1.523562     1.519599     1.515637     1.511674     1.507712
      1.503750     1.499787     1.495825     1.491862     1.487900     1.483938     1.479975     1.476013     1.472050     1.468088
      1.464126     1.460163     1.456201     1.452238     1.448276     1.444314     1.440351     1.436389     1.432426     1.428464
      1.424502     1.420539     1.416577     1.412614     1.408652     1.404690     1.400727     1.396765     1.392802     1.388840
      1.384878     1.380915     1.376953     1.372990     1.369028     1.365066     1.361103     1.357141     1.353179     1.349216
      1.345254     1.341291     1.337329     1.333367     1.329404     1.325442     1.321479     1.317517     1.313555     1.309592
      1.305630     1.301667     1.297705     1.293743     1.289780     1.285818     1.281855     1.277893     1.273931     1.269968
      1.266006     1.262043     1.258081     1.254119     1.250156     1.246194     1.242231     1.238269     1.234307     1.230344
      1.226382     1.222419     1.218457     1.214495     1.210532     1.206570     1.202607     1.198645     1.194683     1.190720
      1.186758     1.182795     1.178833     1.174871     1.170908     1.166946     1.162983     1.159021     1.155059     1.151096
      1.147134     1.143171     1.139209     1.135247     1.131284     1.127322     1.123359     1.119397     1.115435     1.111472
      1.107510     1.103547     1.099585     1.095623     1.091660     1.087698     1.083735     1.079773     1.075811     1.071848
      1.067886     1.063923     1.059961     1.055999     1.052036     1.048074     1.044111     1.040149     1.036187     1.032224
      1.028262     1.024300     1.020337     1.016375     1.012412     1.008450     1.004488     1.000525     0.996563     0.992600
      0.988638     0.984676     0.980713     0.976751     0.972789     0.968826     0.964864     0.960902     0.956939     0.952977
      0.949015     0.945052     0.941090     0.937128     0.933165     0.929203     0.925241     0.921278     0.917316     0.913354
      0.909391     0.905429     0.901467     0.897504     0.893542     0.889580     0.885617     0.881655     0.877693     0.873730
      0.869768     0.865806     0.861843     0.857881     0.853919     0.849956     0.845994     0.842032     0.838069     0.834107
      0.830145     0.826182     0.822220     0.818258     0.814295     0.810333     0.806371     0.802408     0.798446     0.794484
      0.790521     0.786559     0.782597     0.778634     0.774672     0.770710     0.766747     0.762785     0.758823     0.754860
      0.750898     0.746935     0.742973     0.739011     0.735048     0.731086     0.727124     0.723161     0.719199     0.715237
      0.711274     0.707312     0.703350     0.699387     0.695425     0.691463     0.687500     0.683538     0.679576     0.675613
      0.671651     0.667689     0.663726     0.659764     0.655802     0.651839     0.647877     0.643915     0.639952     0.635990
      0.632028     0.628065     0.624103     0.620141     0.616178     0.612216     0.608254     0.604291     0.600329     0.596367
      0.592404     0.588442     0.584480     0.580517     0.576555     0.572593     0.568630     0.564668     0.560706     0.556743
      0.552781     0.548819     0.544856     0.540894     0.536932     0.532969     0.529007     0.525045     0.521082     0.517120
      0.513158     0.509195     0.505233     0.501271     0.497308     0.493346     0.489383     0.485421     0.481459     0.477496
      0.473534     0.469572     0.465609     0.461647     0.457684     0.453722     0.449760     0.445797     0.441835     0.437873
      0.433910     0.429948     0.425986     0.422023     0.418061     0.414098     0.410136     0.406174     0.402211     0.398249
      0.394287     0.390324     0.386362     0.382399     0.378437     0.374475     0.370512     0.366550     0.362588     0.358625
      0.354663     0.350701     0.346738     0.342776     0.338813     0.334851     0.330889     0.326926     0.322964     0.319002
      0.315039     0.311077     0.307115     0.303152     0.299190     0.295227     0.291265     0.287303     0.283340     0.279378
      0.275416     0.271453     0.267491     0.263528     0.259566     0.255604     0.251641     0.247679     0.243717     0.239754
      0.235792     0.231830     0.227867     0.223905     0.219942     0.215980     0.212018     0.208055     0.204093     0.200131
 NY phased data points follow
   1.64515E+01  1.04160E+01  1.38651E+01  2.35638E+01  1.65892E+01  1.65401E+01  1.80243E+01  2.46725E+01  1.70676E+01  2.24438E+01
   2.31013E+01  2.31047E+01  2.91971E+01  2.53025E+01  3.45136E+01  2.99239E+01  4.06517E+01  3.70258E+01  3.35893E+01  4.54598E+01
   3.50271E+01  4.66241E+01  2.92112E+01  4.49302E+01  3.98224E+01  3.78238E+01  3.16049E+01  2.56418E+01  2.48095E+01  2.40257E+01
   2.58986E+01  2.13287E+01  2.62241E+01  2.21814E+01  2.79009E+01  2.38589E+01  2.46959E+01  2.75133E+01  1.77715E+01  2.20785E+01
   2.12393E+01  2.18036E+01  2.67675E+01  1.96889E+01  1.74083E+01  2.23607E+01  1.98964E+01  1.83054E+01  2.42975E+01  2.52424E+01
   2.78186E+01  3.23849E+01  3.40507E+01  2.68156E+01  2.58293E+01  2.79679E+01  2.37849E+01  2.51217E+01  2.45712E+01  2.43782E+01
   1.79894E+01  2.97817E+01  3.03747E+01  3.11823E+01  2.93528E+01  2.68900E+01  2.93906E+01  3.27638E+01  1.91801E+01  1.85958E+01
   1.91083E+01  1.29346E+01  2.03344E+01  2.24080E+01  2.87571E+01  3.14122E+01  2.86916E+01  2.60431E+01  3.41413E+01  2.07318E+01
   2.37127E+01  2.76901E+01  1.90815E+01  2.38008E+01  2.74817E+01  2.38097E+01  2.35724E+01  2.41973E+01  2.43759E+01  2.40645E+01
   3.47893E+01  2.66093E+01  2.85975E+01  3.07403E+01  2.87732E+01  2.58473E+01  2.16460E+01  1.27680E+01  1.75118E+01  1.91050E+01
   1.44082E+01  2.29749E+01  2.47155E+01  2.67114E+01  2.90051E+01  2.71825E+01  3.70019E+01  3.49635E+01  4.32409E+01  4.30616E+01
   4.96104E+01  4.92061E+01  4.29101E+01  2.80360E+01  3.76397E+01  2.95843E+01  3.60969E+01  3.39983E+01  2.23554E+01  2.36704E+01
   1.62026E+01  1.75043E+01  1.77341E+01  1.92876E+01  7.87773E+00  1.33481E+01  1.52308E+01  2.29737E+01  2.30975E+01  2.11102E+01
   1.72310E+01  1.82076E+01  1.33878E+01  1.71748E+01  8.92560E+00  1.53244E+01  1.01064E+01  2.19597E+01  1.99689E+01  1.41719E+01
   2.07340E+01  1.32096E+01  1.02276E+01  1.62973E+01  1.39933E+01  1.04961E+01  1.48505E+01  1.62059E+01  1.35048E+01  1.43486E+01
   1.61575E+01  1.09576E+01  7.99879E+00  1.23762E+01  8.46685E+00  8.45279E+00  1.34762E+01  7.87932E+00  1.52409E+01  1.44242E+01
   1.27615E+01  1.94565E+01  1.41184E+01  1.52453E+01  2.11308E+01  1.27690E+01  1.89016E+01  1.61923E+01  1.20231E+01  1.64104E+01
   9.78254E+00  1.26857E+01  1.28834E+01  1.08401E+01  1.56346E+01  2.18875E+01  2.16476E+01  1.08115E+01  9.10541E+00  1.24450E+01
   2.58189E+01  2.60254E+01  1.69540E+01  2.16983E+01  2.20142E+01  2.02121E+01  1.68212E+01  1.42784E+01  2.30988E+01  2.35874E+01
   1.92548E+01  2.62135E+01  1.58275E+01  2.93884E+01  3.02180E+01  3.43592E+01  4.28060E+01  4.62431E+01  5.75916E+01  6.75341E+01
   5.97549E+01  5.44272E+01  4.30484E+01  3.25531E+01  2.88918E+01  1.33157E+01  2.49099E+01  2.20943E+01  1.60729E+01  2.14271E+01
   1.22491E+01  2.16039E+01  1.43160E+01  2.03681E+01  1.38664E+01  8.68272E+00  1.17292E+01  9.97284E+00  8.68929E+00  1.61843E+01
   1.38658E+01  1.73196E+01  1.32511E+01  2.22126E+01  7.35021E+00  1.04040E+01  7.15590E+00  1.28755E+01  1.36174E+01  1.73434E+01
   1.03134E+01  1.50963E+01  1.85822E+01  1.85881E+01  1.67055E+01  1.91544E+01  2.22564E+01  1.62204E+01  2.29704E+01  2.20901E+01
   2.91660E+01  3.46267E+01  4.25735E+01  5.80789E+01  5.62802E+01  5.98911E+01  5.50151E+01  5.35704E+01  4.48317E+01  3.64952E+01
   2.94346E+01  2.48409E+01  3.04569E+01  2.25799E+01  1.67580E+01  2.26426E+01  1.80814E+01  2.32164E+01  1.44150E+01  2.52417E+01
   7.61586E+00  1.00948E+01  1.87271E+01  1.38459E+01  4.46392E+00  1.26932E+01  5.28803E+00  1.33281E+01  1.21051E+01  1.43177E+01
   1.67226E+01  2.03023E+01  1.37082E+01  1.69763E+01  8.60605E+00  1.78540E+01  1.26453E+01  1.98417E+01  9.42951E+00  7.71364E+00
   9.49640E+00  7.62614E+00  8.66047E+00  3.92382E+00  5.53421E+00  1.19096E+01  4.94585E+00  7.84418E+00  8.23568E+00  1.03217E+01
   1.65351E+01  1.23058E+01  6.20864E+00  7.26360E+00  1.01723E+01  1.87259E+01  1.27839E+01  4.68393E+00  1.06512E+01  1.30546E+01
   7.10619E+00  9.32697E+00  1.35870E+01  9.16899E+00  1.12506E+01  1.24496E+01  1.27951E+01  1.25827E+01  1.68964E+01  1.39760E+01
   1.92562E+01  1.60055E+01  8.59376E+00  1.01082E+01  1.37560E+01  1.21003E+01  1.58742E+01  1.93307E+01  2.07274E+01  1.98970E+01
   1.38345E+01  1.58153E+01  1.50475E+01  1.27879E+01  1.62232E+01  1.82656E+01  9.88611E+00  2.26913E+01  1.24277E+01  3.24783E+00
   9.17404E+00  1.28670E+01  1.10766E+01  7.36492E+00  1.89622E+01  1.39497E+01  9.96982E+00  9.36964E+00  2.41212E+01  1.65952E+01
   2.43289E+01  1.83139E+01  1.65927E+01  1.93175E+01  1.85926E+01  1.49436E+01  1.78645E+01  2.15578E+01  1.65947E+01  2.07924E+01
   1.65618E+01  2.31626E+01  2.50467E+01  9.35003E+00  1.90445E+01  1.09441E+01  1.19523E+01  8.98463E+00  2.33763E+01  2.35652E+01
   1.64828E+01  2.27855E+01  1.60592E+01  1.66652E+01  1.74482E+01  9.53058E+00  1.71749E+01  1.48548E+01  1.77647E+01  1.46474E+01
   1.13765E+01  1.17504E+01  1.49266E+00  1.36462E+01  1.37500E+01  1.75307E+01  2.14205E+01  1.25102E+01  1.97499E+01  2.08547E+01
   2.05843E+01  1.92574E+01  1.93791E+01  1.89239E+01  1.21011E+01  1.39114E+01  1.72925E+01  1.46165E+01  2.24112E+01  1.63299E+01
   1.94651E+01  2.29726E+01  1.88350E+01  1.83980E+01  2.09169E+01  1.61193E+01  1.88466E+01  1.41050E+01  2.17705E+01  2.36592E+01
   2.33268E+01  2.04692E+01  1.82688E+01  1.72913E+01  1.96060E+01  1.34994E+01  1.80287E+01  2.53276E+01  2.16084E+01  2.55337E+01
   3.20025E+01  3.44029E+01  3.51449E+01  2.62507E+01  3.32503E+01  2.85845E+01  3.32167E+01  3.09723E+01  3.01096E+01  2.46948E+01
   2.51042E+01  1.70375E+01  1.74118E+01  2.47250E+01  1.64584E+01  2.60469E+01  3.80828E+01  1.70112E+01  2.54257E+01  2.65803E+01
   2.23121E+01  2.78231E+01  2.77268E+01  2.75311E+01  2.68340E+01  3.15379E+01  2.69131E+01  2.39883E+01  2.32263E+01  2.45045E+01
   2.29656E+01  1.96449E+01  1.53844E+01  2.20272E+01  2.77007E+01  1.73944E+01  1.62776E+01  1.50135E+01  2.01318E+01  2.02845E+01
   1.75250E+01  2.07095E+01  1.98642E+01  1.47052E+01  1.48943E+01  1.75740E+01  2.27916E+01  1.98538E+01  2.44893E+01  2.48670E+01
   2.46842E+01  3.30271E+01  2.65348E+01  2.48526E+01  2.41392E+01  2.33299E+01  2.50350E+01  2.28470E+01  2.13904E+01  2.43398E+01
   2.49022E+01  2.55531E+01  2.28563E+01  4.00023E+01  2.41861E+01  3.05724E+01  2.82023E+01  3.30808E+01  3.35789E+01  3.36195E+01
   3.26874E+01  3.02207E+01  4.23798E+01  2.56472E+01  2.46195E+01  3.10713E+01  3.33967E+01  3.43004E+01  2.98225E+01  3.68414E+01
   2.82919E+01  3.02789E+01  3.44592E+01  3.09686E+01  3.64540E+01  4.53418E+01  4.40904E+01  4.24703E+01  4.65629E+01  6.13290E+01
   7.00407E+01  8.50985E+01  8.72916E+01  8.83720E+01  7.46296E+01  5.07652E+01  4.39551E+01  4.04182E+01  3.39243E+01  3.25125E+01
   3.24108E+01  2.43306E+01  2.62919E+01  2.58552E+01  2.55841E+01  2.01065E+01  2.05178E+01  1.71707E+01  1.98925E+01  1.87998E+01
   1.12472E+01  2.03137E+01  1.21753E+01  2.04673E+01  1.80710E+01  1.66349E+01  1.07861E+01  1.50790E+01  1.72164E+01  1.37991E+01
   1.09482E+01  1.13614E+01  9.97793E+00  1.56741E+01  1.63114E+01  1.88408E+01  1.67088E+01  2.68553E+01  1.32427E+01  1.15061E+01
   1.52146E+01  1.39744E+01  1.75466E+01  1.42118E+01  1.34259E+01  2.20039E+01  1.74683E+01  1.60368E+01  8.32290E+00  2.14452E+01
   9.59271E+00  6.66309E+00  1.31919E+01  1.13234E+01  9.87839E+00  1.49629E+01  1.70866E+01  1.63430E+01  1.32638E+01  1.80191E+01
   2.06798E+01  7.61168E+00  1.23218E+01  1.29736E+01  1.50244E+01  1.19358E+01  2.12950E+01  2.26951E+01  1.51502E+01  9.68986E+00
   1.90020E+01  2.55916E+01  2.10866E+01  1.44559E+01  1.34836E+01  1.61188E+01  1.86493E+01  1.39148E+01  1.56900E+01  1.32076E+01
   1.76679E+01  1.33892E+01  1.00921E+01  1.16557E+01  2.10067E+01  1.58360E+01  1.92424E+01  1.19185E+01  1.91724E+01  1.91930E+01
   1.18357E+01  1.59291E+01  2.03359E+01  8.47380E+00  1.91085E+01  9.51402E+00  1.38302E+01  1.74703E+01  1.64633E+01  6.64946E+00
   1.40745E+01  1.68600E+01  1.58052E+01  1.40502E+01  2.08040E+01  1.89879E+01  2.05449E+01  1.22053E+01  1.68002E+01  1.47739E+01
   2.16171E+01  1.69843E+01  1.03605E+01  1.00304E+01  1.63836E+01  8.74973E+00  2.05729E+01  1.68914E+01  1.60970E+01  1.43057E+01
   7.26852E+00  2.00508E+01  2.13422E+01  1.29765E+01  1.57600E+01  1.11420E+01  9.77017E+00  1.28024E+01  1.96030E+01  1.43587E+01
   1.31586E+01  2.75156E+01  1.50787E+01  1.64517E+01  1.34673E+01  8.41312E+00  1.24819E+01  1.38984E+01  1.26308E+01  1.40069E+01
   1.06578E+01  1.77184E+01  2.02362E+01  8.54930E+00  1.60528E+01  1.17601E+01  2.09613E+01  1.45627E+01  1.07135E+01  1.57787E+01
   1.55961E+01  1.97081E+01  2.09812E+01  1.49240E+01  1.75810E+01  1.57838E+01  1.52849E+01  1.41554E+01  1.45031E+01  2.34472E+01
   1.83218E+01  1.72404E+01  1.95219E+01  1.42611E+01  1.81196E+01  1.36575E+01  1.61076E+01  2.02203E+01  1.44317E+01  2.01272E+01
   1.95345E+01  1.87452E+01  1.94602E+01  1.14403E+01  1.53883E+01  1.72168E+01  1.45364E+01  1.70507E+01  2.41408E+01  1.77183E+01
   1.88155E+01  1.68037E+01  1.49744E+01  1.23626E+01  1.71968E+01  1.94687E+01  1.52301E+01  1.10570E+01  1.84068E+01  1.92158E+01
   1.87998E+01  1.12011E+01  1.35445E+01  1.23926E+01  1.30688E+01  9.21196E+00  1.91854E+01  1.58089E+01  1.68531E+01  1.34787E+01
   1.57628E+01  1.81217E+01  8.38011E+00  1.58935E+01  1.43100E+01  7.66298E+00  9.51750E+00  1.41932E+01  1.72106E+01  9.98847E+00
   6.91357E+00  1.13986E+01  1.63264E+01  6.19104E+00  1.18211E+01  1.07885E+01  1.30746E+01  1.20090E+01  1.53259E+01  1.83954E+01
   1.01459E+01  1.46029E+01  7.71520E+00  7.66038E+00  1.33476E+01  9.71578E+00  8.56288E+00  1.50329E+01  5.37023E+00  9.89727E+00
   3.41769E+00  8.99221E+00  1.53071E+01  1.82953E+01  1.14867E+01  9.00691E+00  1.42479E+01  1.39894E+01  1.39043E+01  1.29072E+01
   4.83655E+00  9.86863E+00  1.02260E+01  1.33722E+01  4.80588E+00  9.03102E+00  1.89034E+01  1.22674E+01  1.09219E+01  8.71814E+00
   1.15561E+01  1.79363E+01  1.80101E+01  1.93248E+01  1.58489E+01  1.29901E+01  1.13368E+01  1.96004E+01  1.67049E+01  2.41766E+01
   1.27371E+01  1.57493E+01  1.73689E+01  2.19751E+01  2.13788E+01  1.68093E+01  2.14417E+01  2.06200E+01  2.39328E+01  2.43722E+01
   2.20085E+01  2.11807E+01  2.22885E+01  2.17601E+01  1.92847E+01  1.95156E+01  2.76248E+01  2.12926E+01  1.68580E+01  2.19900E+01
   2.54468E+01  2.19002E+01  2.65360E+01  1.32879E+01  1.82477E+01  2.46208E+01  1.44064E+01  1.39052E+01  2.35424E+01  1.72824E+01
   1.65824E+01  1.11549E+01  9.99112E+00  1.83168E+01  1.90201E+01  1.31780E+01  2.05691E+01  2.23215E+01  1.87721E+01  1.60075E+01
   1.87667E+01  1.43324E+01  1.18630E+01  1.39539E+01  1.58687E+01  1.99638E+01  1.47465E+01  2.31901E+01  1.18157E+01  1.03505E+01
   8.82167E+00  9.51021E+00  1.08061E+01  9.57163E+00  1.24596E+01  1.18493E+01  1.24395E+01  1.39809E+01  1.80383E+01  3.14435E+00
   8.22596E+00  6.45826E+00  1.47244E+01  1.03777E+01  1.10837E+01  8.00638E+00  6.90230E+00  1.28200E+01  1.78984E+01  1.65154E+01
   1.27645E+01  6.03386E+00  1.49308E+01  1.24148E+01  1.03511E+01  1.51105E+01  3.99981E+00  5.10292E+00  8.13443E+00  3.75806E+00
   1.09423E+01  1.03302E+01  9.40627E+00  8.02252E+00  9.09107E+00  4.12902E+00  5.84273E+00  1.73325E+01  5.49331E+00  1.03263E+01
   8.92729E+00  1.23305E+01  8.31427E+00  9.27982E+00  1.23031E+01  4.91366E+00  8.19498E+00  1.05126E+01  5.80006E+00  7.15898E+00
   8.91252E+00  3.79715E+00  8.30439E+00  1.32518E+01  7.35392E+00  1.58697E+01  6.45988E+00  1.06403E+01  1.16857E+01  7.12178E+00
   8.12107E+00  1.21831E+01  4.91654E+00  7.40691E+00  8.12448E+00  1.23505E+01  1.89887E+00  6.26714E+00  1.48568E+01  5.28763E+00
   7.62229E+00  1.07578E+01  4.77369E+00  9.09253E+00  1.51330E+01  1.55399E+01  9.01536E+00  8.43630E+00  9.73270E+00  7.07614E+00
   1.34993E+01  1.15255E+01  3.07504E+00  6.01355E+00  7.36655E+00  1.01382E+01  9.58825E+00  7.25504E+00  9.50003E+00 -2.42821E-01
   9.35157E+00  4.04296E+00  1.29678E+01  5.74521E+00  2.05778E+01  7.07963E+00  1.84504E+01  8.04348E+00  9.40775E+00  6.65581E+00
   1.39360E+01  1.52294E+01  1.35705E+01  7.59121E-01  1.41392E+01  5.78812E+00  1.17928E+01  6.37266E+00  1.28651E+01  1.21461E+01
   1.40844E+01  6.38407E+00  9.95621E+00  1.36792E+01  9.10339E+00  5.32442E+00  6.18665E+00  2.86646E+00  4.69419E+00  2.92733E+00
   1.05624E+01 -1.03039E+00  3.15584E+00  1.10783E+01  3.84715E+00  1.55762E+01  1.02380E+01  3.50702E+00  6.97302E+00  4.87650E+00
   7.42641E+00  9.67937E+00  1.08977E+01  7.22272E+00  2.06555E+00  4.99930E+00  9.10168E+00  9.95496E+00  3.97716E+00  3.46064E+00
   7.57707E+00  8.69697E+00  1.21707E+01  4.07776E+00 -2.62267E+00  1.27624E+01  3.05529E+00  7.68545E+00  1.18456E+01  5.80000E+00
 NY points of the fit to the data follow
   1.47771E+01  1.48175E+01  1.49197E+01  1.50906E+01  1.53451E+01  1.57040E+01  1.61986E+01  1.68847E+01  1.78497E+01  1.91683E+01
   2.08443E+01  2.28236E+01  2.50475E+01  2.74713E+01  3.00353E+01  3.25955E+01  3.49226E+01  3.68367E+01  3.83197E+01  3.94570E+01
   4.02739E+01  4.06169E+01  4.01848E+01  3.87108E+01  3.61765E+01  3.29127E+01  2.95034E+01  2.65237E+01  2.42843E+01  2.27652E+01
   2.17395E+01  2.09661E+01  2.03155E+01  1.97540E+01  1.92773E+01  1.88968E+01  1.86403E+01  1.85282E+01  1.85528E+01  1.86770E+01
   1.88536E+01  1.90529E+01  1.92808E+01  1.95735E+01  1.99747E+01  2.05146E+01  2.12067E+01  2.20463E+01  2.29813E+01  2.38865E+01
   2.46103E+01  2.50701E+01  2.52971E+01  2.54001E+01  2.54908E+01  2.56172E+01  2.57625E+01  2.59122E+01  2.61076E+01  2.64249E+01
   2.69118E+01  2.75183E+01  2.80624E+01  2.82877E+01  2.80002E+01  2.71842E+01  2.60135E+01  2.47658E+01  2.37128E+01  2.30340E+01
