 LCModel (Version 6.3-1P) Copyright: S.W. Provencher.          Ref.: Magn. Reson. Med. 30:672-679 (1993).                
  /home/bmi/Documents/MRS/Scripts/myScripts/tests/temp/1 (/home/bmi/Documents/MRS/Scripts/myScripts/tests/temp/1)
 tests_tests
 Data of: Laboratorio de Interfaces Cerebro-Maquina, Pontificia Universidad Catolica de Chile, Universidad de Chile
 20-January-2021  15:56
 36 lines in following concentration table = NCONC+1
    Conc.  %SD /Cr+PCr  Metabolite                                         
    0.296  95% 9.7E-02 Ala                                                 
    0.924  42%   0.304 Asp                                                 
    1.620  24%   0.533 Cr                                                  
    1.418  29%   0.467 PCr                                                 
    0.252 107% 8.3E-02 GABA                                                
    0.368  63%   0.121 Glc                                                 
    1.690  24%   0.556 Gln                                                 
    4.908   9%   1.616 Glu                                                 
    1.018   5%   0.335 GPC                                                 
    0.000 999%   0.000 PCh                                                 
    0.648  24%   0.213 GSH                                                 
    3.063   7%   1.008 Ins                                                 
    0.574  54%   0.189 Lac                                                 
    4.224   5%   1.391 NAA                                                 
    0.437  46%   0.144 NAAG                                                
 2.45E-02 236% 8.1E-03 Scyllo                                              
 8.86E-02 292% 2.9E-02 Tau                                                 
    0.546  48%   0.180 -CrCH2                                              
    1.018   5%   0.335 GPC+PCh                                             
    4.661   5%   1.534 NAA+NAAG                                            
    3.038   5%   1.000 Cr+PCr                                              
    6.598   8%   2.172 Glu+Gln                                             
    1.426  91%   0.469 Lip13a                                              
    0.000 999%   0.000 Lip13b                                              
    0.140 356% 4.6E-02 Lip09                                               
    4.198  15%   1.382 MM09                                                
    0.234 137% 7.7E-02 Lip20                                               
    8.458  14%   2.784 MM20                                                
    1.295  36%   0.426 MM12                                                
    3.489  30%   1.149 MM14                                                
    0.830  67%   0.273 MM17                                                
    1.426  91%   0.469 Lip13a+Lip13b                                       
    6.210  16%   2.044 MM14+Lip13a+Lip13b+MM12                             
    4.338  11%   1.428 MM09+Lip09                                          
    8.691  13%   2.861 MM20+Lip20                                          
   6 lines in following misc. output table
  FWHM = 0.036 ppm    S/N =   8                                            
  Data shift =-0.024 ppm                                                   
  Ph:   2 deg      -2.8 deg/ppm                                            
  alphaB,S = 8.5E+01,   2.0E+02                                            
   14 spline knots.   Ns = 8(1)                                            
   2 inflections.     1 extrema                                            
  960 points on ppm-axis = NY
      4.000000     3.996038     3.992075     3.988113     3.984151     3.980189     3.976226     3.972264     3.968302     3.964339
      3.960377     3.956415     3.952453     3.948490     3.944528     3.940566     3.936604     3.932641     3.928679     3.924717
      3.920754     3.916792     3.912830     3.908868     3.904905     3.900943     3.896981     3.893018     3.889056     3.885094
      3.881132     3.877169     3.873207     3.869245     3.865283     3.861320     3.857358     3.853396     3.849433     3.845471
      3.841509     3.837547     3.833584     3.829622     3.825660     3.821697     3.817735     3.813773     3.809811     3.805848
      3.801886     3.797924     3.793962     3.789999     3.786037     3.782075     3.778112     3.774150     3.770188     3.766226
      3.762263     3.758301     3.754339     3.750376     3.746414     3.742452     3.738490     3.734527     3.730565     3.726603
      3.722641     3.718678     3.714716     3.710754     3.706791     3.702829     3.698867     3.694905     3.690942     3.686980
      3.683018     3.679055     3.675093     3.671131     3.667169     3.663206     3.659244     3.655282     3.651320     3.647357
      3.643395     3.639433     3.635470     3.631508     3.627546     3.623584     3.619621     3.615659     3.611697     3.607734
      3.603772     3.599810     3.595848     3.591885     3.587923     3.583961     3.579998     3.576036     3.572074     3.568112
      3.564149     3.560187     3.556225     3.552263     3.548300     3.544338     3.540376     3.536413     3.532451     3.528489
      3.524527     3.520564     3.516602     3.512640     3.508677     3.504715     3.500753     3.496791     3.492828     3.488866
      3.484904     3.480942     3.476979     3.473017     3.469055     3.465092     3.461130     3.457168     3.453206     3.449243
      3.445281     3.441319     3.437356     3.433394     3.429432     3.425470     3.421507     3.417545     3.413583     3.409621
      3.405658     3.401696     3.397734     3.393771     3.389809     3.385847     3.381885     3.377922     3.373960     3.369998
      3.366035     3.362073     3.358111     3.354149     3.350186     3.346224     3.342262     3.338300     3.334337     3.330375
      3.326413     3.322450     3.318488     3.314526     3.310564     3.306601     3.302639     3.298677     3.294714     3.290752
      3.286790     3.282828     3.278865     3.274903     3.270941     3.266979     3.263016     3.259054     3.255092     3.251129
      3.247167     3.243205     3.239243     3.235280     3.231318     3.227356     3.223393     3.219431     3.215469     3.211507
      3.207544     3.203582     3.199620     3.195657     3.191695     3.187733     3.183771     3.179808     3.175846     3.171884
      3.167922     3.163959     3.159997     3.156035     3.152072     3.148110     3.144148     3.140186     3.136223     3.132261
      3.128299     3.124336     3.120374     3.116412     3.112450     3.108487     3.104525     3.100563     3.096601     3.092638
      3.088676     3.084714     3.080751     3.076789     3.072827     3.068865     3.064902     3.060940     3.056978     3.053015
      3.049053     3.045091     3.041129     3.037166     3.033204     3.029242     3.025280     3.021317     3.017355     3.013393
      3.009430     3.005468     3.001506     2.997544     2.993581     2.989619     2.985657     2.981694     2.977732     2.973770
      2.969808     2.965845     2.961883     2.957921     2.953959     2.949996     2.946034     2.942072     2.938109     2.934147
      2.930185     2.926223     2.922260     2.918298     2.914336     2.910373     2.906411     2.902449     2.898487     2.894524
      2.890562     2.886600     2.882638     2.878675     2.874713     2.870751     2.866788     2.862826     2.858864     2.854902
      2.850939     2.846977     2.843015     2.839052     2.835090     2.831128     2.827166     2.823203     2.819241     2.815279
      2.811316     2.807354     2.803392     2.799430     2.795467     2.791505     2.787543     2.783581     2.779618     2.775656
      2.771694     2.767731     2.763769     2.759807     2.755845     2.751882     2.747920     2.743958     2.739995     2.736033
      2.732071     2.728109     2.724146     2.720184     2.716222     2.712260     2.708297     2.704335     2.700373     2.696410
      2.692448     2.688486     2.684524     2.680561     2.676599     2.672637     2.668674     2.664712     2.660750     2.656788
      2.652825     2.648863     2.644901     2.640939     2.636976     2.633014     2.629052     2.625089     2.621127     2.617165
      2.613203     2.609240     2.605278     2.601316     2.597353     2.593391     2.589429     2.585467     2.581504     2.577542
      2.573580     2.569618     2.565655     2.561693     2.557731     2.553768     2.549806     2.545844     2.541882     2.537919
      2.533957     2.529995     2.526032     2.522070     2.518108     2.514146     2.510183     2.506221     2.502259     2.498296
      2.494334     2.490372     2.486410     2.482447     2.478485     2.474523     2.470561     2.466598     2.462636     2.458674
      2.454711     2.450749     2.446787     2.442825     2.438862     2.434900     2.430938     2.426975     2.423013     2.419051
      2.415089     2.411126     2.407164     2.403202     2.399240     2.395277     2.391315     2.387353     2.383390     2.379428
      2.375466     2.371504     2.367541     2.363579     2.359617     2.355654     2.351692     2.347730     2.343768     2.339805
      2.335843     2.331881     2.327919     2.323956     2.319994     2.316032     2.312069     2.308107     2.304145     2.300183
      2.296220     2.292258     2.288296     2.284333     2.280371     2.276409     2.272447     2.268484     2.264522     2.260560
      2.256598     2.252635     2.248673     2.244711     2.240748     2.236786     2.232824     2.228862     2.224899     2.220937
      2.216975     2.213012     2.209050     2.205088     2.201126     2.197163     2.193201     2.189239     2.185277     2.181314
      2.177352     2.173390     2.169427     2.165465     2.161503     2.157541     2.153578     2.149616     2.145654     2.141691
      2.137729     2.133767     2.129805     2.125842     2.121880     2.117918     2.113955     2.109993     2.106031     2.102069
      2.098106     2.094144     2.090182     2.086220     2.082257     2.078295     2.074333     2.070370     2.066408     2.062446
      2.058484     2.054521     2.050559     2.046597     2.042634     2.038672     2.034710     2.030748     2.026785     2.022823
      2.018861     2.014899     2.010936     2.006974     2.003012     1.999049     1.995087     1.991125     1.987162     1.983200
      1.979237     1.975275     1.971313     1.967350     1.963388     1.959425     1.955463     1.951501     1.947538     1.943576
      1.939613     1.935651     1.931689     1.927726     1.923764     1.919801     1.915839     1.911877     1.907914     1.903952
      1.899989     1.896027     1.892065     1.888102     1.884140     1.880177     1.876215     1.872253     1.868290     1.864328
      1.860365     1.856403     1.852441     1.848478     1.844516     1.840553     1.836591     1.832629     1.828666     1.824704
      1.820741     1.816779     1.812817     1.808854     1.804892     1.800929     1.796967     1.793005     1.789042     1.785080
      1.781117     1.777155     1.773193     1.769230     1.765268     1.761305     1.757343     1.753381     1.749418     1.745456
      1.741493     1.737531     1.733569     1.729606     1.725644     1.721681     1.717719     1.713757     1.709794     1.705832
      1.701869     1.697907     1.693945     1.689982     1.686020     1.682057     1.678095     1.674133     1.670170     1.666208
      1.662246     1.658283     1.654321     1.650358     1.646396     1.642434     1.638471     1.634509     1.630546     1.626584
      1.622622     1.618659     1.614697     1.610734     1.606772     1.602810     1.598847     1.594885     1.590922     1.586960
      1.582998     1.579035     1.575073     1.571110     1.567148     1.563186     1.559223     1.555261     1.551298     1.547336
      1.543374     1.539411     1.535449     1.531486     1.527524     1.523562     1.519599     1.515637     1.511674     1.507712
      1.503750     1.499787     1.495825     1.491862     1.487900     1.483938     1.479975     1.476013     1.472050     1.468088
      1.464126     1.460163     1.456201     1.452238     1.448276     1.444314     1.440351     1.436389     1.432426     1.428464
      1.424502     1.420539     1.416577     1.412614     1.408652     1.404690     1.400727     1.396765     1.392802     1.388840
      1.384878     1.380915     1.376953     1.372990     1.369028     1.365066     1.361103     1.357141     1.353179     1.349216
      1.345254     1.341291     1.337329     1.333367     1.329404     1.325442     1.321479     1.317517     1.313555     1.309592
      1.305630     1.301667     1.297705     1.293743     1.289780     1.285818     1.281855     1.277893     1.273931     1.269968
      1.266006     1.262043     1.258081     1.254119     1.250156     1.246194     1.242231     1.238269     1.234307     1.230344
      1.226382     1.222419     1.218457     1.214495     1.210532     1.206570     1.202607     1.198645     1.194683     1.190720
      1.186758     1.182795     1.178833     1.174871     1.170908     1.166946     1.162983     1.159021     1.155059     1.151096
      1.147134     1.143171     1.139209     1.135247     1.131284     1.127322     1.123359     1.119397     1.115435     1.111472
      1.107510     1.103547     1.099585     1.095623     1.091660     1.087698     1.083735     1.079773     1.075811     1.071848
      1.067886     1.063923     1.059961     1.055999     1.052036     1.048074     1.044111     1.040149     1.036187     1.032224
      1.028262     1.024300     1.020337     1.016375     1.012412     1.008450     1.004488     1.000525     0.996563     0.992600
      0.988638     0.984676     0.980713     0.976751     0.972789     0.968826     0.964864     0.960902     0.956939     0.952977
      0.949015     0.945052     0.941090     0.937128     0.933165     0.929203     0.925241     0.921278     0.917316     0.913354
      0.909391     0.905429     0.901467     0.897504     0.893542     0.889580     0.885617     0.881655     0.877693     0.873730
      0.869768     0.865806     0.861843     0.857881     0.853919     0.849956     0.845994     0.842032     0.838069     0.834107
      0.830145     0.826182     0.822220     0.818258     0.814295     0.810333     0.806371     0.802408     0.798446     0.794484
      0.790521     0.786559     0.782597     0.778634     0.774672     0.770710     0.766747     0.762785     0.758823     0.754860
      0.750898     0.746935     0.742973     0.739011     0.735048     0.731086     0.727124     0.723161     0.719199     0.715237
      0.711274     0.707312     0.703350     0.699387     0.695425     0.691463     0.687500     0.683538     0.679576     0.675613
      0.671651     0.667689     0.663726     0.659764     0.655802     0.651839     0.647877     0.643915     0.639952     0.635990
      0.632028     0.628065     0.624103     0.620141     0.616178     0.612216     0.608254     0.604291     0.600329     0.596367
      0.592404     0.588442     0.584480     0.580517     0.576555     0.572593     0.568630     0.564668     0.560706     0.556743
      0.552781     0.548819     0.544856     0.540894     0.536932     0.532969     0.529007     0.525045     0.521082     0.517120
      0.513158     0.509195     0.505233     0.501271     0.497308     0.493346     0.489383     0.485421     0.481459     0.477496
      0.473534     0.469572     0.465609     0.461647     0.457684     0.453722     0.449760     0.445797     0.441835     0.437873
      0.433910     0.429948     0.425986     0.422023     0.418061     0.414098     0.410136     0.406174     0.402211     0.398249
      0.394287     0.390324     0.386362     0.382399     0.378437     0.374475     0.370512     0.366550     0.362588     0.358625
      0.354663     0.350701     0.346738     0.342776     0.338813     0.334851     0.330889     0.326926     0.322964     0.319002
      0.315039     0.311077     0.307115     0.303152     0.299190     0.295227     0.291265     0.287303     0.283340     0.279378
      0.275416     0.271453     0.267491     0.263528     0.259566     0.255604     0.251641     0.247679     0.243717     0.239754
      0.235792     0.231830     0.227867     0.223905     0.219942     0.215980     0.212018     0.208055     0.204093     0.200131
 NY phased data points follow
   3.38886E-02  4.66022E-02  4.60172E-02  5.31251E-02  5.51915E-02  5.40794E-02  5.27373E-02  6.17759E-02  3.83630E-02  4.58516E-02
   6.92267E-02  5.65901E-02  7.05615E-02  5.96768E-02  4.99903E-02  6.79848E-02  6.69710E-02  7.87002E-02  1.26891E-01  8.52653E-02
   1.09250E-01  8.86790E-02  1.20377E-01  7.80498E-02  7.08147E-02  7.89888E-02  7.16081E-02  6.75715E-02  7.78990E-02  6.96466E-02
   5.00393E-02  5.98879E-02  6.85457E-02  7.42164E-02  4.28941E-02  4.61978E-02  4.74770E-02  3.40730E-02  4.60073E-02  5.57080E-02
   5.99942E-02  7.85393E-02  5.88272E-02  5.32247E-02  7.52568E-02  5.86434E-02  6.47191E-02  4.22156E-02  6.06250E-02  3.92726E-02
   6.05139E-02  5.42218E-02  6.99827E-02  6.33871E-02  4.73385E-02  7.31203E-02  7.25582E-02  5.87242E-02  6.58043E-02  7.66499E-02
   7.16641E-02  6.38464E-02  5.59799E-02  9.01466E-02  8.71567E-02  6.30486E-02  6.68540E-02  5.51738E-02  4.81112E-02  3.66560E-02
   3.97226E-02  7.85035E-02  4.45123E-02  5.64845E-02  5.14316E-02  7.33401E-02  4.79586E-02  7.25843E-02  6.77248E-02  6.96293E-02
   4.72840E-02  6.27110E-02  5.38178E-02  6.09714E-02  6.15931E-02  7.41941E-02  5.42336E-02  7.19078E-02  8.39218E-02  7.55166E-02
   8.71138E-02  8.65779E-02  8.24566E-02  8.13282E-02  8.75862E-02  7.92582E-02  5.78045E-02  5.77220E-02  5.08806E-02  4.89135E-02
   3.57407E-02  5.01134E-02  5.80062E-02  5.64231E-02  6.85462E-02  5.27694E-02  8.78033E-02  5.77375E-02  8.99923E-02  9.82533E-02
   1.01312E-01  1.03172E-01  1.12106E-01  9.39100E-02  9.39595E-02  9.71421E-02  9.30344E-02  8.32394E-02  5.59054E-02  5.36654E-02
   6.20390E-02  5.76244E-02  5.54992E-02  3.46229E-02  3.60959E-02  3.34199E-02  5.15308E-02  4.79736E-02  3.62728E-02  5.06940E-02
   5.84214E-02  3.88446E-02  5.13624E-02  4.26933E-02  3.43392E-02  5.61816E-02  3.81032E-02  6.32846E-02  6.43631E-02  5.43963E-02
   5.83586E-02  5.11144E-02  4.69236E-02  3.62614E-02  4.61652E-02  4.36855E-02  4.00090E-02  2.84379E-02  4.62079E-02  3.01007E-02
   3.56394E-02  3.03279E-02  3.90570E-02  3.47248E-02  2.06515E-02  2.40459E-02  1.46694E-02  1.47751E-02  2.41310E-02  2.48565E-02
   3.95002E-02  4.47708E-02  5.65234E-02  5.82370E-02  4.36616E-02  3.70399E-02  5.12218E-02  5.58409E-02  3.36312E-02  2.50565E-02
   1.65598E-02  2.37797E-02  4.17886E-02  6.64518E-02  2.99692E-02  6.91792E-02  1.61128E-02  3.00896E-02  3.80072E-02  5.84590E-02
   4.22339E-02  3.75570E-02  5.78447E-02  3.62831E-02  6.20786E-02  6.14342E-02  6.45753E-02  6.69330E-02  6.39490E-02  3.71263E-02
   7.02659E-02  6.40085E-02  5.14151E-02  7.80516E-02  9.27726E-02  9.42400E-02  1.17754E-01  1.13160E-01  1.38637E-01  1.44834E-01
   1.49367E-01  1.56437E-01  1.24360E-01  1.04505E-01  8.98945E-02  6.78856E-02  3.87569E-02  3.04997E-02  1.85546E-02  3.55184E-02
   2.99466E-02  4.56544E-02  6.54266E-02  6.70161E-02  3.88103E-02  3.33689E-02  3.25678E-02  3.33955E-02  3.77582E-02  3.78054E-02
   4.06200E-02  4.53630E-02  1.94346E-02  2.33479E-02  3.21523E-02  3.48577E-02  1.92269E-02  2.72946E-02  5.91257E-02  4.65861E-02
   2.32499E-02  2.13508E-02  4.54209E-02  5.29104E-02  3.25563E-02  3.70831E-02  4.43291E-02  7.80585E-02  6.41450E-02  8.59438E-02
   8.59172E-02  8.85230E-02  1.16798E-01  1.19598E-01  1.30983E-01  1.38040E-01  1.41469E-01  1.34938E-01  1.36431E-01  1.16347E-01
   8.92886E-02  8.80293E-02  5.27484E-02  2.31356E-02  2.87650E-02  2.51055E-02  4.34814E-02  5.54342E-02  5.36077E-02  6.30521E-02
   4.61065E-02  4.78095E-02  2.35143E-02  1.81763E-02  1.48510E-02  5.08502E-02  3.62618E-02  3.78270E-02  3.24896E-02  5.06907E-02
   2.49703E-02  1.70117E-02  3.22696E-02  3.28163E-02  4.53820E-02  4.07651E-02  2.41003E-02  4.39317E-02  4.15261E-02  4.20362E-02
   1.17402E-02  2.74026E-02  4.17650E-02  2.90112E-02  1.63073E-02  1.06335E-02  4.55409E-02  2.85816E-02  2.28431E-02  4.51580E-02
   1.92984E-02  1.83966E-02  3.54058E-02  4.15902E-02  3.28191E-02  1.51556E-02  2.44380E-02  2.24005E-02  2.26632E-02  2.55918E-02
   1.64097E-02  3.68134E-02  4.14818E-02  2.69137E-02  4.29104E-02  2.26082E-02  3.45130E-02  3.26994E-02  3.08725E-02  5.52219E-02
   5.13458E-02  4.35859E-02  1.96674E-02  3.41234E-02  2.87284E-02  4.41351E-02  3.74036E-02  4.91353E-02  4.79156E-02  5.82511E-02
   4.54772E-02  3.28607E-02  5.73878E-02  4.94030E-02  2.83993E-02  3.47279E-02  3.52469E-02  2.69784E-02  1.37290E-02  4.39154E-02
   5.30713E-02  2.95078E-02  4.85247E-02  3.46033E-02  3.78377E-02  3.44367E-02  6.88727E-02  3.17796E-02  3.73993E-02  2.48320E-02
   3.96041E-02  4.61096E-02  4.96035E-02  4.34086E-02  5.28210E-02  4.69610E-02  4.47880E-02  5.51272E-02  3.79845E-02  3.77565E-02
   6.31865E-02  2.96388E-02  4.57957E-02  5.94262E-02  3.77061E-02  7.15503E-02  5.37183E-02  4.02752E-02  3.97528E-02  4.60731E-02
   4.82804E-02  4.01035E-02  4.09501E-02  4.68426E-02  5.47868E-02  6.67367E-02  2.35506E-02  3.80467E-02  3.22739E-02  3.96284E-02
   4.49334E-02  4.32338E-02  4.73521E-02  3.75245E-02  3.58848E-02  6.78459E-02  5.65821E-02  2.48841E-02  3.74700E-02  2.50334E-02
   4.24866E-02  6.07350E-02  6.17267E-02  5.45589E-02  6.05034E-02  4.33849E-02  5.93396E-02  5.04858E-02  5.01950E-02  3.54046E-02
   6.55975E-02  7.18540E-02  4.28822E-02  4.83391E-02  5.97602E-02  4.51324E-02  8.54107E-02  7.54654E-02  6.22949E-02  3.80674E-02
   5.61158E-02  5.82026E-02  6.50083E-02  3.83955E-02  5.01849E-02  6.31754E-02  6.43552E-02  5.42285E-02  5.57967E-02  5.77796E-02
   8.11726E-02  7.56560E-02  7.10916E-02  5.06840E-02  6.89265E-02  7.94135E-02  7.02318E-02  7.10779E-02  8.75800E-02  6.75901E-02
   9.59209E-02  5.97867E-02  6.67738E-02  3.76166E-02  3.87720E-02  4.90888E-02  4.16141E-02  6.91663E-02  5.61690E-02  6.74113E-02
   9.59404E-02  7.61917E-02  8.34479E-02  9.52551E-02  6.87848E-02  6.65212E-02  6.37529E-02  7.31832E-02  4.26569E-02  4.76551E-02
   5.74165E-02  5.55754E-02  7.25853E-02  5.54191E-02  6.97202E-02  5.19451E-02  5.44265E-02  5.13105E-02  4.75496E-02  4.43354E-02
   3.71407E-02  4.26841E-02  6.87799E-02  3.09286E-02  6.69765E-02  7.48814E-02  4.94920E-02  6.13675E-02  6.99232E-02  7.89187E-02
   7.30105E-02  4.57193E-02  6.98543E-02  7.03592E-02  4.44161E-02  6.93951E-02  6.22956E-02  5.66789E-02  9.08615E-02  7.97573E-02
   7.57373E-02  7.87666E-02  6.31250E-02  7.20730E-02  9.19218E-02  8.50892E-02  9.86078E-02  9.54397E-02  9.24255E-02  9.64783E-02
   8.28363E-02  5.90792E-02  6.96880E-02  7.72087E-02  1.02452E-01  9.71131E-02  9.35886E-02  9.78961E-02  7.74860E-02  1.00193E-01
   8.06106E-02  7.19123E-02  7.20428E-02  1.10115E-01  1.06914E-01  1.23419E-01  1.35274E-01  1.59933E-01  1.66683E-01  1.77452E-01
   1.78466E-01  1.95650E-01  2.18631E-01  2.13196E-01  1.81699E-01  1.87246E-01  1.74924E-01  1.28259E-01  9.80483E-02  6.70730E-02
   2.86863E-02  1.95724E-02  4.83381E-02  7.30205E-02  4.88042E-02  7.71867E-02  6.46890E-02  6.14155E-02  6.38308E-02  3.87068E-02
   4.28107E-02  4.65125E-02  3.51257E-02  3.78444E-02  5.29076E-02  4.87792E-02  4.12221E-02  4.27108E-02  2.87690E-02  3.23373E-02
   5.02028E-02  4.84005E-02  2.53626E-02  3.19362E-02  2.72516E-02  2.44925E-02  4.63951E-02  4.74907E-02  3.82908E-02  5.21256E-02
   3.57288E-02  1.40323E-02  3.97486E-02  3.82113E-02  6.02931E-02  2.51668E-02  6.26747E-02  2.59021E-02  3.08115E-02  4.77827E-02
   2.32666E-02  1.64269E-02  3.24775E-02  3.40816E-02  3.00964E-02  3.22969E-02  4.45165E-02  2.65017E-02  1.89411E-02  3.68901E-02
   4.05960E-02  1.74864E-02  2.31091E-02  1.29294E-02  1.87964E-02  1.66199E-02  1.97770E-02  2.35385E-02  1.53343E-02  3.01639E-02
   1.69309E-02  2.22826E-02  1.42732E-02  1.56165E-02  1.54449E-02  4.10762E-02  1.65991E-02  1.49895E-02  3.97996E-02  3.83246E-02
   2.15904E-02  3.37220E-02  3.86132E-02  2.10431E-02  2.54850E-02  3.18393E-02  1.06908E-03  3.40128E-02  2.66747E-02  2.45885E-02
   1.56392E-02  4.35205E-02  3.66494E-02  3.97727E-02  3.51724E-02  3.22779E-02  1.57665E-02  2.25263E-02  2.45757E-02  3.18366E-02
   3.27449E-02  8.76755E-03  2.84147E-02  2.19506E-02  3.80086E-02  2.90006E-02  2.67722E-02  4.77263E-02  1.52272E-02  3.14731E-02
   3.01428E-02  1.97517E-02  3.49475E-02  4.43706E-02  3.14886E-02  2.48665E-02  1.05220E-02  2.61242E-02  4.27840E-02  1.67987E-02
   1.70576E-02  2.41513E-02  1.71230E-02  2.88299E-02  2.82411E-02  4.27416E-02  3.60713E-02  2.24009E-02  3.52807E-02  3.78562E-02
   2.27975E-02  4.23509E-02  2.67347E-02  3.49807E-02  3.53765E-02  6.55816E-03  3.80263E-02  1.92041E-02  3.22208E-02  2.42729E-02
   3.09159E-02  1.82521E-02  3.03529E-02  3.28060E-02  1.25686E-02  4.69339E-02  4.65804E-02  4.79778E-02  3.86126E-02  4.02695E-02
   3.09977E-02  4.20019E-02  3.33104E-02  5.60121E-02  4.44941E-02  4.50315E-02  4.83146E-02  2.99420E-02  4.57329E-02  4.09433E-02
   3.24187E-02  4.14316E-02  3.62521E-02  4.13442E-02  6.52266E-02  4.09374E-02  4.58221E-02  4.68195E-02  5.32765E-02  4.08737E-02
   2.73636E-02  6.78558E-02  4.31228E-02  3.50854E-02  2.93420E-02  5.00606E-02  2.72821E-02  3.42640E-02  3.78682E-02  2.81638E-02
   3.85286E-02  4.74874E-02  2.80306E-02  6.32046E-02  3.50215E-02  3.55081E-02  2.78039E-02  2.72309E-02  3.84243E-02  5.51524E-02
   1.06546E-02  2.55655E-02  1.54475E-02  4.02353E-02  2.41010E-02  4.23525E-02  4.16385E-02  4.18618E-02  6.19148E-02  1.46571E-02
   4.93195E-02  3.00285E-02  4.23709E-02  2.40083E-02  2.59693E-02  1.79791E-02  1.24064E-02  3.24915E-02  2.90262E-02  3.32070E-02
   2.74325E-02  1.83501E-02  2.43084E-02  2.41535E-02  3.13625E-02  2.98404E-02  3.30319E-02  2.41234E-02  2.84507E-02  2.59579E-02
   2.55625E-02  3.42999E-02  3.95283E-02  2.32839E-02  2.13310E-02  2.39559E-02  4.00190E-02  2.73399E-02  2.07808E-02  4.03149E-02
   2.80993E-02  1.71352E-02  4.23628E-02  9.64224E-03  4.00911E-02  2.03751E-02  1.55079E-02  2.12141E-02  4.63426E-02  2.45686E-02
   3.08544E-02  3.11941E-02  1.97967E-02  3.02294E-02  1.80472E-02  2.61432E-02  2.28243E-02  1.83133E-02  2.14417E-02  9.53504E-03
   3.10381E-02  1.94701E-02  2.05000E-02  3.03098E-02  1.63840E-02  4.95353E-02  1.97906E-02  2.41824E-02  3.59961E-02  4.18992E-02
   3.04666E-02  2.89272E-02  3.81493E-02  4.53517E-02  4.00343E-02  4.09919E-02  2.70355E-02  4.82303E-02  4.49883E-02  5.15973E-02
   4.41363E-02  4.79752E-02  5.52772E-02  7.91729E-02  5.39704E-02  3.06612E-02  4.37889E-02  3.03612E-02  3.33454E-02  4.60553E-02
   4.58876E-02  4.35478E-02  3.11693E-02  5.52280E-02  4.49829E-02  6.15935E-02  3.65259E-02  3.71594E-02  3.35410E-02  5.42566E-02
   6.64959E-02  4.51078E-02  2.55780E-02  4.49162E-02  3.32414E-02  3.36971E-02  2.04545E-02  2.36850E-02  4.50492E-02  2.97019E-02
   1.44683E-02  3.09732E-02  3.51133E-02  2.86299E-02  3.82470E-02  2.31296E-02  2.80608E-02  1.83601E-02  3.11677E-02  2.18035E-02
   3.38647E-02  1.72728E-02  2.46264E-02  2.52899E-02  3.47283E-04  8.39383E-03  2.23203E-02  1.82051E-02  8.80450E-03  1.65595E-02
   2.17529E-02  2.48873E-02  3.17179E-02  2.34635E-02  1.53827E-02  1.21375E-02  3.58382E-02  1.50438E-02  3.58532E-02 -9.66830E-03
  -2.68946E-03  1.50099E-02  2.30178E-02  1.45757E-02  3.44507E-03  9.23270E-03  2.41652E-02  2.38965E-02  6.67503E-03  7.09861E-03
   2.58803E-02  1.89437E-03  2.69175E-03  1.91867E-02 -3.13300E-04  5.31637E-03 -6.07349E-03  1.48737E-02  6.56016E-03  1.72861E-02
  -3.41413E-03  2.73232E-02  1.17954E-02  1.46620E-02  2.56511E-02  1.42947E-02  9.43846E-03  8.42046E-03  2.53688E-02  1.75372E-02
   2.37294E-02  2.38352E-03  1.28563E-02  2.13919E-02  1.99850E-02  2.80557E-02  1.91098E-02  2.28761E-02  4.55862E-03  9.79168E-03
   2.17137E-02  2.21786E-02 -5.91593E-03  3.90676E-03  2.19882E-03  2.11451E-02  2.07740E-02  1.63678E-02  3.23469E-02  1.44603E-02
   7.18594E-03 -4.33461E-03  2.49991E-02 -3.62878E-03  2.24865E-02  3.95598E-02  2.05231E-02  2.96044E-02  1.12367E-02  2.79147E-02
   1.16896E-02  2.69694E-02  2.21403E-02  9.35830E-03  3.01138E-02  1.74249E-02  5.17796E-03  1.99418E-02  2.26227E-02  1.95919E-02
   6.45459E-03  1.91530E-02  2.10383E-02  7.73819E-03  3.09352E-02  2.82635E-02  8.83256E-03  6.10007E-03 -3.76184E-03  1.72229E-02
   1.23217E-02  3.41239E-02  1.23774E-02  1.55025E-02  6.57498E-03  1.05928E-02  2.32820E-03  8.50433E-03  2.41576E-02  3.55991E-02
   2.09627E-02  2.22365E-02  2.06167E-02  1.53452E-02 -1.57678E-03 -6.35239E-03  1.42079E-02  2.30145E-02  2.79722E-02  1.96543E-02
   2.16384E-02  8.22185E-03  2.03181E-02  4.26689E-03  1.29463E-02  1.06323E-02  2.17284E-02  1.03267E-02  2.19378E-02  1.24499E-02
   8.96267E-03  1.74840E-02 -2.71076E-03  1.08926E-02  7.64715E-03  2.12987E-02  7.78606E-03  2.28339E-02  6.40114E-03  3.08850E-02
   9.93791E-03  1.71409E-02  1.59655E-02  2.07493E-02  1.33478E-04  2.80499E-02  1.64661E-02  1.62884E-02  8.18031E-03  2.33842E-02
 NY points of the fit to the data follow
   4.06893E-02  4.07878E-02  4.10038E-02  4.13525E-02  4.18898E-02  4.26589E-02  4.36738E-02  4.49578E-02  4.66214E-02  4.88605E-02
   5.17904E-02  5.53236E-02  5.93527E-02  6.39994E-02  6.94659E-02  7.56256E-02  8.19444E-02  8.77760E-02  9.26067E-02  9.60940E-02
   9.79997E-02  9.81252E-02  9.63449E-02  9.27075E-02  8.74840E-02  8.11088E-02  7.41009E-02  6.70860E-02  6.08660E-02  5.62405E-02
   5.35353E-02  5.23432E-02  5.18716E-02  5.14969E-02  5.09594E-02  5.02521E-02  4.95102E-02  4.89214E-02  4.86422E-02  4.87552E-02
   4.92533E-02  5.00449E-02  5.10121E-02  5.20825E-02  5.32097E-02  5.43029E-02  5.52632E-02  5.60812E-02  5.68667E-02  5.77690E-02
   5.88112E-02  5.98139E-02  6.05680E-02  6.10757E-02  6.15930E-02  6.24626E-02  6.39177E-02  6.59995E-02  6.85466E-02  7.11860E-02
