 $SEQPAR
 ECHOT = 23.00000000
 SEQ = 'PRESS'
 HZPPM = 123.22961600
 $END
 $NMID
 ID = 'SZ10117A'
 FMTDAT = '(2E15.6)'
 VOLUME = 4.500E+00
 TRAMP = 1.0
 $END
   3.426285E+05   1.786732E+04
   3.231830E+05   1.723605E+04
   3.318533E+05   1.609499E+04
   3.170555E+05   1.500429E+04
   3.229725E+05   1.361624E+04
   3.132180E+05   1.217969E+04
   3.177691E+05   1.238962E+04
   3.086984E+05   1.319423E+04
   3.109565E+05   1.245381E+04
   3.030150E+05   1.134001E+04
   3.049962E+05   1.062777E+04
   2.980933E+05   9.440312E+03
   2.995081E+05   7.546111E+03
   2.932801E+05   6.894433E+03
   2.939213E+05   6.687010E+03
   2.876084E+05   5.585867E+03
   2.878387E+05   4.520415E+03
   2.823219E+05   4.248262E+03
   2.827011E+05   3.246810E+03
   2.775818E+05   2.691679E+03
   2.774702E+05   2.038544E+03
   2.720638E+05   1.792666E+03
   2.715352E+05   6.094413E+02
   2.665432E+05  -1.794258E+01
   2.662608E+05  -2.933405E+02
   2.615058E+05  -5.819355E+02
   2.608028E+05  -1.345364E+03
   2.558958E+05  -1.583641E+03
   2.551724E+05  -1.818571E+03
   2.510102E+05  -2.053139E+03
   2.505788E+05  -2.038836E+03
   2.465048E+05  -1.449843E+03
   2.453623E+05  -1.502620E+03
   2.410812E+05  -1.525147E+03
   2.400697E+05  -1.670353E+03
   2.361765E+05  -1.483447E+03
   2.353680E+05  -1.744619E+03
   2.316104E+05  -1.382733E+03
   2.305204E+05  -9.010812E+02
   2.266826E+05  -5.823165E+02
   2.256874E+05  -5.295263E+02
   2.220426E+05  -3.702353E+01
   2.212699E+05   4.047712E+02
   2.176859E+05   1.014561E+03
   2.165623E+05   1.653442E+03
   2.128216E+05   2.092375E+03
   2.117611E+05   2.042259E+03
   2.085006E+05   2.481271E+03
   2.075899E+05   2.883893E+03
   2.041601E+05   3.821468E+03
   2.028859E+05   4.253423E+03
   1.993141E+05   5.000172E+03
   1.981501E+05   5.307868E+03
   1.951290E+05   5.683651E+03
   1.940793E+05   6.107342E+03
   1.910031E+05   6.692170E+03
   1.899272E+05   7.243033E+03
   1.866117E+05   7.947227E+03
   1.853867E+05   8.347187E+03
   1.823791E+05   8.924878E+03
   1.814799E+05   9.227879E+03
   1.786483E+05   9.822287E+03
   1.773664E+05   1.041302E+04
   1.741243E+05   1.101337E+04
   1.729209E+05   1.107490E+04
   1.702583E+05   1.149317E+04
   1.692807E+05   1.185152E+04
   1.666678E+05   1.247696E+04
   1.653621E+05   1.276440E+04
   1.625114E+05   1.329512E+04
   1.612737E+05   1.350335E+04
   1.586582E+05   1.387759E+04
   1.577102E+05   1.411682E+04
   1.552113E+05   1.461377E+04
   1.540205E+05   1.467070E+04
   1.512945E+05   1.495248E+04
   1.501686E+05   1.513436E+04
   1.477878E+05   1.547742E+04
   1.467772E+05   1.569841E+04
   1.444988E+05   1.620947E+04
   1.433254E+05   1.646337E+04
   1.406061E+05   1.676070E+04
   1.391987E+05   1.673457E+04
   1.367524E+05   1.671079E+04
   1.358541E+05   1.667714E+04
   1.337272E+05   1.698411E+04
   1.328856E+05   1.724184E+04
   1.305319E+05   1.766280E+04
   1.294214E+05   1.770756E+04
   1.271882E+05   1.788720E+04
   1.262372E+05   1.791961E+04
   1.240321E+05   1.832474E+04
   1.229427E+05   1.850478E+04
   1.206532E+05   1.878794E+04
   1.194856E+05   1.873624E+04
   1.174696E+05   1.858664E+04
   1.166539E+05   1.838964E+04
   1.148043E+05   1.854471E+04
   1.139666E+05   1.864582E+04
   1.118277E+05   1.896536E+04
   1.108027E+05   1.898930E+04
   1.086249E+05   1.898117E+04
   1.078805E+05   1.877951E+04
   1.061012E+05   1.884165E+04
   1.052734E+05   1.882207E+04
   1.032938E+05   1.914099E+04
   1.023445E+05   1.907216E+04
   1.003014E+05   1.907515E+04
   9.956671E+04   1.895902E+04
   9.778606E+04   1.895036E+04
   9.704634E+04   1.896482E+04
   9.501985E+04   1.918342E+04
   9.398207E+04   1.909609E+04
   9.199680E+04   1.912557E+04
   9.111321E+04   1.888685E+04
   8.945384E+04   1.883321E+04
   8.887615E+04   1.869884E+04
   8.727770E+04   1.870882E+04
   8.669422E+04   1.865457E+04
   8.500762E+04   1.868452E+04
   8.418796E+04   1.873116E+04
   8.251553E+04   1.891204E+04
   8.184339E+04   1.890628E+04
   8.031358E+04   1.897290E+04
   7.957958E+04   1.888619E+04
   7.794802E+04   1.881201E+04
   7.724583E+04   1.863231E+04
   7.580590E+04   1.858700E+04
   7.509775E+04   1.848971E+04
   7.364636E+04   1.857634E+04
   7.298752E+04   1.858659E+04
   7.149037E+04   1.868955E+04
   7.088880E+04   1.843646E+04
   6.940466E+04   1.850362E+04
   6.887671E+04   1.831540E+04
   6.744236E+04   1.834249E+04
   6.685220E+04   1.825707E+04
   6.527646E+04   1.819271E+04
   6.477205E+04   1.805847E+04
   6.357204E+04   1.805871E+04
   6.305104E+04   1.786902E+04
   6.160908E+04   1.796815E+04
   6.104318E+04   1.779858E+04
   5.974015E+04   1.780382E+04
   5.927344E+04   1.760767E+04
   5.805326E+04   1.742044E+04
   5.769970E+04   1.717656E+04
   5.646328E+04   1.729215E+04
   5.605788E+04   1.705374E+04
   5.488397E+04   1.692684E+04
   5.441691E+04   1.673911E+04
   5.323286E+04   1.665467E+04
   5.275163E+04   1.632649E+04
   5.164016E+04   1.620046E+04
   5.125501E+04   1.593016E+04
   5.013071E+04   1.588225E+04
   4.977867E+04   1.576595E+04
   4.874363E+04   1.584217E+04
   4.833705E+04   1.575715E+04
   4.730200E+04   1.579634E+04
   4.675570E+04   1.562050E+04
   4.559659E+04   1.569062E+04
   4.511378E+04   1.541865E+04
   4.403448E+04   1.538307E+04
   4.363319E+04   1.514704E+04
   4.248146E+04   1.511462E+04
   4.227084E+04   1.483975E+04
   4.128335E+04   1.482150E+04
   4.097377E+04   1.458148E+04
   4.015263E+04   1.453459E+04
   3.982032E+04   1.437566E+04
   3.896378E+04   1.439342E+04
   3.866259E+04   1.428790E+04
   3.759079E+04   1.422567E+04
   3.726134E+04   1.396647E+04
   3.639506E+04   1.409875E+04
   3.603052E+04   1.398020E+04
   3.514596E+04   1.414524E+04
   3.476498E+04   1.403112E+04
   3.385282E+04   1.403419E+04
   3.345518E+04   1.379862E+04
   3.258798E+04   1.371361E+04
   3.232156E+04   1.342741E+04
   3.145462E+04   1.346996E+04
   3.109452E+04   1.333299E+04
   3.019210E+04   1.328119E+04
   2.994729E+04   1.305561E+04
   2.926674E+04   1.299675E+04
   2.912062E+04   1.278193E+04
   2.831192E+04   1.280330E+04
   2.808410E+04   1.249980E+04
   2.725529E+04   1.261570E+04
   2.705435E+04   1.223847E+04
   2.624646E+04   1.205385E+04
   2.605209E+04   1.186667E+04
   2.545456E+04   1.184686E+04
   2.522260E+04   1.170095E+04
   2.445463E+04   1.158525E+04
   2.435124E+04   1.136071E+04
   2.377899E+04   1.129029E+04
   2.369219E+04   1.095256E+04
   2.306579E+04   1.094752E+04
   2.294450E+04   1.083292E+04
   2.222143E+04   1.084661E+04
   2.200218E+04   1.059950E+04
   2.140458E+04   1.053409E+04
   2.127533E+04   1.038700E+04
   2.068283E+04   1.042820E+04
   2.057795E+04   1.031394E+04
   1.988279E+04   1.029956E+04
   1.980133E+04   1.001123E+04
   1.913477E+04   9.874412E+03
   1.901706E+04   9.518609E+03
   1.838697E+04   9.428052E+03
   1.835153E+04   9.284525E+03
   1.757511E+04   9.204587E+03
   1.749797E+04   8.958062E+03
   1.699850E+04   8.841914E+03
   1.705336E+04   8.461974E+03
   1.661195E+04   8.484188E+03
   1.653686E+04   8.171173E+03
   1.601617E+04   8.193611E+03
   1.599037E+04   7.960300E+03
   1.541741E+04   7.876861E+03
   1.542176E+04   7.595467E+03
   1.495052E+04   7.590183E+03
   1.506115E+04   7.419751E+03
   1.446683E+04   7.515128E+03
   1.428822E+04   7.325105E+03
   1.380019E+04   7.264528E+03
   1.380553E+04   6.946693E+03
   1.336959E+04   6.978470E+03
   1.349848E+04   6.703544E+03
   1.293570E+04   6.726807E+03
   1.294688E+04   6.455659E+03
   1.239827E+04   6.475843E+03
   1.237721E+04   6.187297E+03
   1.185296E+04   6.128999E+03
   1.194190E+04   5.905422E+03
   1.155894E+04   5.865846E+03
   1.151992E+04   5.764354E+03
   1.118354E+04   5.724745E+03
   1.116229E+04   5.497451E+03
   1.075154E+04   5.532814E+03
   1.085984E+04   5.365669E+03
   1.042988E+04   5.474256E+03
   1.041817E+04   5.309070E+03
   1.001272E+04   5.436372E+03
   9.844299E+03   5.292587E+03
   9.375583E+03   5.289384E+03
   9.342216E+03   5.081458E+03
   8.847418E+03   5.162156E+03
   8.793502E+03   4.899652E+03
   8.388115E+03   4.828303E+03
   8.474482E+03   4.627000E+03
   8.045574E+03   4.597195E+03
   8.125870E+03   4.519802E+03
   7.824487E+03   4.487967E+03
   7.764967E+03   4.364173E+03
   7.397832E+03   4.189667E+03
   7.535161E+03   4.059063E+03
   7.040644E+03   4.075947E+03
   7.226321E+03   3.881613E+03
   6.830220E+03   3.895893E+03
   6.866461E+03   3.740678E+03
   6.466608E+03   3.726677E+03
   6.645670E+03   3.666067E+03
   6.236992E+03   3.727927E+03
   6.244884E+03   3.549009E+03
   5.922949E+03   3.585374E+03
   5.953124E+03   3.400560E+03
   5.476068E+03   3.488744E+03
   5.578153E+03   3.333621E+03
   5.259671E+03   3.309846E+03
   5.331851E+03   3.226071E+03
   5.055125E+03   3.241928E+03
   5.129616E+03   3.136971E+03
   4.788048E+03   3.192110E+03
   4.904105E+03   2.906519E+03
   4.666157E+03   2.883201E+03
   4.874651E+03   2.690282E+03
   4.608454E+03   2.604598E+03
   4.775869E+03   2.523287E+03
   4.477450E+03   2.562866E+03
   4.633941E+03   2.537190E+03
   4.413147E+03   2.552338E+03
   4.548062E+03   2.494139E+03
   4.290501E+03   2.568209E+03
   4.330204E+03   2.496755E+03
   4.068904E+03   2.562590E+03
   4.156176E+03   2.517783E+03
   3.923581E+03   2.503585E+03
   4.101635E+03   2.287390E+03
   3.903501E+03   2.376862E+03
   4.006465E+03   2.278427E+03
   3.792927E+03   2.322938E+03
   3.831358E+03   2.281585E+03
   3.597752E+03   2.403788E+03
   3.551019E+03   2.452372E+03
   3.306683E+03   2.567088E+03
   3.356932E+03   2.506876E+03
   3.072560E+03   2.451791E+03
   3.197076E+03   2.311425E+03
   2.905723E+03   2.281289E+03
   2.977266E+03   2.239456E+03
   2.815180E+03   2.253241E+03
   2.826980E+03   2.021667E+03
   2.562829E+03   2.101925E+03
   2.549408E+03   2.081372E+03
   2.354245E+03   2.058511E+03
   2.390288E+03   2.033831E+03
   2.077417E+03   1.997157E+03
   2.105070E+03   1.895035E+03
   1.873005E+03   1.889036E+03
   1.925143E+03   1.679716E+03
   1.670070E+03   1.760364E+03
   1.655336E+03   1.469470E+03
